Tempo(s),Canal 1(V),Canal 2(V)
-25.00000E-03,+113.22236E-03,+1.75047109E+00
-24.97500E-03,+75.83543E-03,+1.73822234E+00
-24.95000E-03,+40.28266E-03,+1.72931531E+00
-24.92500E-03,+4.00125E-03,+1.72009420E+00
-24.90000E-03,-30.47111E-03,+1.71310928E+00
-24.87500E-03,-68.31030E-03,+1.70266958E+00
-24.85000E-03,-100.50880E-03,+1.69382536E+00
-24.82500E-03,-138.41081E-03,+1.68640074E+00
-24.80000E-03,-174.18970E-03,+1.67839822E+00
-24.77500E-03,-211.19975E-03,+1.67020727E+00
-24.75000E-03,-246.89071E-03,+1.66303390E+00
-24.72500E-03,-284.06407E-03,+1.65114948E+00
-24.70000E-03,-317.10427E-03,+1.64397611E+00
-24.67500E-03,-353.20980E-03,+1.63523239E+00
-24.65000E-03,-393.44849E-03,+1.62630023E+00
-24.62500E-03,-424.52890E-03,+1.61831028E+00
-24.60000E-03,-454.59172E-03,+1.61047109E+00
-24.57500E-03,-498.02136E-03,+1.60070978E+00
-24.55000E-03,-541.99121E-03,+1.59274495E+00
-24.52500E-03,-582.20477E-03,+1.58136304E+00
-24.50000E-03,-623.90075E-03,+1.57635048E+00
-24.47500E-03,-656.68972E-03,+1.56744345E+00
-24.45000E-03,-691.96608E-03,+1.55866204E+00
-24.42500E-03,-730.27010E-03,+1.54951631E+00
-24.40000E-03,-762.28016E-03,+1.54042084E+00
-24.37500E-03,-793.18468E-03,+1.53533289E+00
-24.35000E-03,-828.63694E-03,+1.52599872E+00
-24.32500E-03,-854.94347E-03,+1.51779520E+00
-24.30000E-03,-888.38567E-03,+1.51018214E+00
-24.27500E-03,-918.43594E-03,+1.50152637E+00
-24.25000E-03,-944.18972E-03,+1.49739319E+00
-24.22500E-03,-978.82537E-03,+1.48599873E+00
-24.20000E-03,-1.00927766E+00,+1.48043340E+00
-24.17500E-03,-1.03179021E+00,+1.47107410E+00
-24.15000E-03,-1.06349872E+00,+1.46480526E+00
-24.12500E-03,-1.09802135E+00,+1.45524496E+00
-24.10000E-03,-1.12328521E+00,+1.44657662E+00
-24.07500E-03,-1.15082289E+00,+1.44082285E+00
-24.05000E-03,-1.19726762E+00,+1.43434044E+00
-24.02500E-03,-1.22682793E+00,+1.42509421E+00
-24.00000E-03,-1.25794599E+00,+1.41893842E+00
-23.97500E-03,-1.29916453E+00,+1.41072234E+00
-23.95000E-03,-1.33584800E+00,+1.40294596E+00
-23.92500E-03,-1.36676514E+00,+1.39666454E+00
-23.90000E-03,-1.40667711E+00,+1.38569721E+00
-23.87500E-03,-1.48853651E+00,+1.38288314E+00
-23.85000E-03,-1.54900130E+00,+1.37444094E+00
-23.82500E-03,-1.56862433E+00,+1.36735551E+00
-23.80000E-03,-1.58442835E+00,+1.36170224E+00
-23.77500E-03,-1.60155158E+00,+1.35413942E+00
-23.75000E-03,-1.65248122E+00,+1.34594847E+00
-23.72500E-03,-1.72984304E+00,+1.33866204E+00
-23.70000E-03,-1.77380033E+00,+1.33336053E+00
-23.67500E-03,-1.80194090E+00,+1.32549621E+00
-23.65000E-03,-1.83766955E+00,+1.31594847E+00
-23.62500E-03,-1.87069732E+00,+1.31001883E+00
-23.60000E-03,-1.90955409E+00,+1.30446606E+00
-23.57500E-03,-1.96813449E+00,+1.29777008E+00
-23.55000E-03,-2.00640085E+00,+1.29048365E+00
-23.52500E-03,-2.03932785E+00,+1.28421481E+00
-23.50000E-03,-2.08325998E+00,+1.27722987E+00
-23.47500E-03,-2.11289580E+00,+1.26916456E+00
-23.45000E-03,-2.14261947E+00,+1.26435299E+00
-23.42500E-03,-2.19349873E+00,+1.25509420E+00
-23.40000E-03,-2.23273254E+00,+1.24753138E+00
-23.37500E-03,-2.26127516E+00,+1.24343591E+00
-23.35000E-03,-2.31011925E+00,+1.23770727E+00
-23.32500E-03,-2.34972990E+00,+1.23324747E+00
-23.30000E-03,-2.36147625E+00,+1.22454143E+00
-23.27500E-03,-2.39342330E+00,+1.21456655E+00
-23.25000E-03,-2.43677779E+00,+1.21001882E+00
-23.22500E-03,-2.47189078E+00,+1.20495601E+00
-23.20000E-03,-2.52677752E+00,+1.19633792E+00
-23.17500E-03,-2.56911431E+00,+1.18934044E+00
-23.15000E-03,-2.58535820E+00,+1.18431531E+00
-23.12500E-03,-2.62609931E+00,+1.17886305E+00
-23.10000E-03,-2.68509438E+00,+1.17256907E+00
-23.07500E-03,-2.71462950E+00,+1.16751882E+00
-23.05000E-03,-2.75305892E+00,+1.16000627E+00
-23.02500E-03,-2.80060923E+00,+1.15229269E+00
-23.00000E-03,-2.81724264E+00,+1.14877509E+00
-22.97500E-03,-2.84955409E+00,+1.14329772E+00
-22.95000E-03,-2.91210440E+00,+1.13434044E+00
-22.92500E-03,-2.93980544E+00,+1.12882536E+00
-22.90000E-03,-2.96526996E+00,+1.12015701E+00
-22.87500E-03,-3.00788306E+00,+1.11403893E+00
-22.85000E-03,-3.02441601E+00,+1.10994345E+00
-22.82500E-03,-3.04559682E+00,+1.10393842E+00
-22.80000E-03,-3.09873756E+00,+1.09619972E+00
-22.77500E-03,-3.11464210E+00,+1.09288315E+00
-22.75000E-03,-3.12810914E+00,+1.08778265E+00
-22.72500E-03,-3.16405141E+00,+1.08096102E+00
-22.70000E-03,-3.17999390E+00,+1.07234296E+00
-22.67500E-03,-3.20143850E+00,+1.06836053E+00
-22.65000E-03,-3.25484316E+00,+1.06266958E+00
-22.62500E-03,-3.26347368E+00,+1.05568465E+00
-22.60000E-03,-3.27744323E+00,+1.04922736E+00
-22.57500E-03,-3.30524500E+00,+1.04351129E+00
-22.55000E-03,-3.31421503E+00,+1.03848616E+00
-22.52500E-03,-3.34719209E+00,+1.03236806E+00
-22.50000E-03,-3.38300862E+00,+1.02810928E+00
-22.47500E-03,-3.38643838E+00,+1.02297109E+00
-22.45000E-03,-3.41327243E+00,+1.01501883E+00
-22.42500E-03,-3.44998134E+00,+1.01175249E+00
-22.40000E-03,-3.47146373E+00,+1.00532035E+00
-22.37500E-03,-3.50474227E+00,+998.90074E-03
-22.35000E-03,-3.53021985E+00,+994.44093E-03
-22.32500E-03,-3.54971711E+00,+988.68717E-03
-22.30000E-03,-3.58986813E+00,+984.34041E-03
-22.27500E-03,-3.61420249E+00,+977.95853E-03
-22.25000E-03,-3.64318452E+00,+972.51883E-03
-22.22500E-03,-3.67632525E+00,+967.41833E-03
-22.20000E-03,-3.67362461E+00,+962.10426E-03
-22.17500E-03,-3.70809658E+00,+956.95352E-03
-22.15000E-03,-3.74549645E+00,+950.42082E-03
-22.12500E-03,-3.75631282E+00,+944.75502E-03
-22.10000E-03,-3.77993063E+00,+938.13443E-03
-22.07500E-03,-3.79418986E+00,+937.25501E-03
-22.05000E-03,-3.80078539E+00,+931.85300E-03
-22.02500E-03,-3.85533317E+00,+925.16957E-03
-22.00000E-03,-3.84921501E+00,+922.14194E-03
-21.97500E-03,-3.85376209E+00,+915.21985E-03
-21.95000E-03,-3.88647626E+00,+911.18715E-03
-21.92500E-03,-3.87983074E+00,+907.00375E-03
-21.90000E-03,-3.92221693E+00,+902.28013E-03
-21.87500E-03,-3.94425234E+00,+896.82786E-03
-21.85000E-03,-3.92064652E+00,+890.83539E-03
-21.82500E-03,-3.97283287E+00,+888.83791E-03
-21.80000E-03,-3.97177811E+00,+885.47108E-03
-21.77500E-03,-3.98766920E+00,+878.24746E-03
-21.75000E-03,-4.01127497E+00,+875.78514E-03
-21.72500E-03,-3.98524534E+00,+869.08917E-03
-21.70000E-03,-4.02015689E+00,+865.37058E-03
-21.67500E-03,-4.03420253E+00,+862.02891E-03
-21.65000E-03,-4.02991822E+00,+855.63438E-03
-21.62500E-03,-4.04940303E+00,+851.16202E-03
-21.60000E-03,-4.03910198E+00,+846.65200E-03
-21.57500E-03,-4.04755649E+00,+842.49371E-03
-21.55000E-03,-4.07318491E+00,+839.80529E-03
-21.52500E-03,-4.05990567E+00,+834.54143E-03
-21.50000E-03,-4.07710403E+00,+828.98868E-03
-21.47500E-03,-4.08187838E+00,+824.26509E-03
-21.45000E-03,-4.08456652E+00,+821.56403E-03
-21.42500E-03,-4.11108639E+00,+814.72990E-03
-21.40000E-03,-4.09191564E+00,+812.95854E-03
-21.37500E-03,-4.10687795E+00,+807.31784E-03
-21.35000E-03,-4.11292105E+00,+802.16705E-03
-21.32500E-03,-4.10153879E+00,+798.83793E-03
-21.30000E-03,-4.10446587E+00,+795.73489E-03
-21.27500E-03,-4.09918995E+00,+791.76508E-03
-21.25000E-03,-4.12075996E+00,+786.58919E-03
-21.22500E-03,-4.13929045E+00,+783.10933E-03
-21.20000E-03,-4.12581013E+00,+779.16457E-03
-21.17500E-03,-4.13847341E+00,+775.92336E-03
-21.15000E-03,-4.13763217E+00,+772.24242E-03
-21.12500E-03,-4.14130005E+00,+768.37311E-03
-21.10000E-03,-4.15315929E+00,+763.66205E-03
-21.07500E-03,-4.13256881E+00,+758.63693E-03
-21.05000E-03,-4.14498110E+00,+754.15201E-03
-21.02500E-03,-4.14849900E+00,+751.90326E-03
-21.00000E-03,-4.15587283E+00,+748.58668E-03
-20.97500E-03,-4.16114942E+00,+742.56906E-03
-20.95000E-03,-4.14785828E+00,+738.87562E-03
-20.92500E-03,-4.16903895E+00,+736.28769E-03
-20.90000E-03,-4.17496882E+00,+732.00375E-03
-20.87500E-03,-4.17176477E+00,+728.29773E-03
-20.85000E-03,-4.17937812E+00,+723.46105E-03
-20.82500E-03,-4.17298387E+00,+721.55146E-03
-20.80000E-03,-4.19425222E+00,+716.40073E-03
-20.77500E-03,-4.18787075E+00,+713.44848E-03
-20.75000E-03,-4.17685267E+00,+712.78267E-03
-20.72500E-03,-4.19661442E+00,+707.26757E-03
-20.70000E-03,-4.18901397E+00,+703.86304E-03
-20.67500E-03,-4.20025721E+00,+698.76255E-03
-20.65000E-03,-4.20250635E+00,+696.65193E-03
-20.62500E-03,-4.18828539E+00,+691.42587E-03
-20.60000E-03,-4.21621248E+00,+687.36804E-03
-20.57500E-03,-4.20411438E+00,+684.07661E-03
-20.55000E-03,-4.20902600E+00,+679.96859E-03
-20.52500E-03,-4.21312200E+00,+677.58164E-03
-20.50000E-03,-4.20304661E+00,+673.64948E-03
-20.47500E-03,-4.22794561E+00,+672.58165E-03
-20.45000E-03,-4.21313446E+00,+666.52635E-03
-20.42500E-03,-4.20984261E+00,+663.63690E-03
-20.40000E-03,-4.21978033E+00,+659.51629E-03
-20.37500E-03,-4.21127520E+00,+656.06154E-03
-20.35000E-03,-4.22711647E+00,+652.07915E-03
-20.32500E-03,-4.21473009E+00,+649.71729E-03
-20.30000E-03,-4.21047076E+00,+646.58918E-03
-20.27500E-03,-4.22964225E+00,+642.54391E-03
-20.25000E-03,-4.21454147E+00,+640.92335E-03
-20.22500E-03,-4.22288280E+00,+637.89572E-03
-20.20000E-03,-4.21866229E+00,+633.27262E-03
-20.17500E-03,-4.21216710E+00,+630.27007E-03
-20.15000E-03,-4.23641362E+00,+625.52134E-03
-20.12500E-03,-4.21077242E+00,+625.40829E-03
-20.10000E-03,-4.21313412E+00,+621.12434E-03
-20.07500E-03,-4.21592370E+00,+616.07410E-03
-20.05000E-03,-4.21511918E+00,+612.05403E-03
-20.02500E-03,-4.22160148E+00,+608.93842E-03
-20.00000E-03,-4.19896385E+00,+607.88316E-03
-19.97500E-03,-4.20599854E+00,+603.05902E-03
-19.95000E-03,-4.21631313E+00,+601.19976E-03
-19.92500E-03,-4.20217945E+00,+596.71481E-03
-19.90000E-03,-4.20621208E+00,+592.80778E-03
-19.87500E-03,-4.18998149E+00,+590.79768E-03
-19.85000E-03,-4.19814678E+00,+587.71982E-03
-19.82500E-03,-4.20086084E+00,+583.66206E-03
-19.80000E-03,-4.18186512E+00,+578.69970E-03
-19.77500E-03,-4.18467957E+00,+579.39065E-03
-19.75000E-03,-4.17050908E+00,+574.21479E-03
-19.72500E-03,-4.17915159E+00,+572.15452E-03
-19.70000E-03,-4.16529512E+00,+570.20723E-03
-19.67500E-03,-4.14361137E+00,+562.85800E-03
-19.65000E-03,-4.14812186E+00,+562.65703E-03
-19.62500E-03,-4.13137585E+00,+562.28018E-03
-19.60000E-03,-4.11962887E+00,+557.49371E-03
-19.57500E-03,-4.09327274E+00,+551.42591E-03
-19.55000E-03,-4.05668987E+00,+549.59168E-03
-19.52500E-03,-4.07774567E+00,+547.56909E-03
-19.50000E-03,-4.01177760E+00,+547.01632E-03
-19.47500E-03,-3.99242994E+00,+541.42592E-03
-19.45000E-03,-3.98460466E+00,+537.54396E-03
-19.42500E-03,-3.94177788E+00,+536.09921E-03
-19.40000E-03,-3.95180183E+00,+532.85796E-03
-19.37500E-03,-3.90279522E+00,+529.36555E-03
-19.35000E-03,-3.86373651E+00,+525.96105E-03
-19.32500E-03,-3.87729293E+00,+522.40572E-03
-19.30000E-03,-3.83554685E+00,+520.29525E-03
-19.27500E-03,-3.82905078E+00,+517.60676E-03
-19.25000E-03,-3.81661427E+00,+515.35807E-03
-19.22500E-03,-3.76937857E+00,+512.09170E-03
-19.20000E-03,-3.78136301E+00,+510.21988E-03
-19.17500E-03,-3.75691620E+00,+505.76003E-03
-19.15000E-03,-3.73141281E+00,+504.74250E-03
-19.12500E-03,-3.72848596E+00,+501.72736E-03
-19.10000E-03,-3.69449150E+00,+497.88316E-03
-19.07500E-03,-3.68647576E+00,+496.40069E-03
-19.05000E-03,-3.67635081E+00,+491.77761E-03
-19.02500E-03,-3.63545818E+00,+490.35806E-03
-19.00000E-03,-3.62521952E+00,+487.46857E-03
-18.97500E-03,-3.60329810E+00,+485.52140E-03
-18.95000E-03,-3.57770708E+00,+481.01127E-03
-18.92500E-03,-3.57287008E+00,+480.29521E-03
-18.90000E-03,-3.52810902E+00,+478.49873E-03
-18.87500E-03,-3.50185254E+00,+474.84295E-03
-18.85000E-03,-3.48866231E+00,+472.79518E-03
-18.82500E-03,-3.45677751E+00,+470.16959E-03
-18.80000E-03,-3.43975439E+00,+466.67711E-03
-18.77500E-03,-3.40179031E+00,+463.78766E-03
-18.75000E-03,-3.36510684E+00,+460.27006E-03
-18.72500E-03,-3.35186567E+00,+457.70729E-03
-18.70000E-03,-3.31690342E+00,+456.65194E-03
-18.67500E-03,-3.28160114E+00,+453.12179E-03
-18.65000E-03,-3.25611158E+00,+448.62435E-03
-18.62500E-03,-3.21812214E+00,+448.77508E-03
-18.60000E-03,-3.19229240E+00,+445.19472E-03
-18.57500E-03,-3.16699149E+00,+444.54150E-03
-18.55000E-03,-3.11985510E+00,+441.70228E-03
-18.52500E-03,-3.08753085E+00,+439.31526E-03
-18.50000E-03,-3.04607433E+00,+436.71479E-03
-18.47500E-03,-3.00893843E+00,+432.99627E-03
-18.45000E-03,-2.98699055E+00,+431.68969E-03
-18.42500E-03,-2.93862446E+00,+431.27514E-03
-18.40000E-03,-2.88750578E+00,+429.88064E-03
-18.37500E-03,-2.85455358E+00,+425.65951E-03
-18.35000E-03,-2.80519493E+00,+422.44346E-03
-18.32500E-03,-2.76913928E+00,+421.11177E-03
-18.30000E-03,-2.75129956E+00,+417.78269E-03
-18.27500E-03,-2.69966703E+00,+415.73489E-03
-18.25000E-03,-2.65122419E+00,+414.54149E-03
-18.22500E-03,-2.63251853E+00,+412.93342E-03
-18.20000E-03,-2.58949159E+00,+410.52133E-03
-18.17500E-03,-2.54618694E+00,+405.92338E-03
-18.15000E-03,-2.52900056E+00,+405.92339E-03
-18.12500E-03,-2.48131262E+00,+403.42338E-03
-18.10000E-03,-2.43479206E+00,+400.98610E-03
-18.07500E-03,-2.41437780E+00,+400.15700E-03
-18.05000E-03,-2.37720516E+00,+398.12189E-03
-18.02500E-03,-2.32779517E+00,+396.62689E-03
-18.00000E-03,-2.30555838E+00,+395.32027E-03
-17.97500E-03,-2.27205382E+00,+391.80276E-03
-17.95000E-03,-2.22206608E+00,+389.91834E-03
-17.92500E-03,-2.19930227E+00,+389.69220E-03
-17.90000E-03,-2.16562205E+00,+386.27507E-03
-17.87500E-03,-2.12220488E+00,+385.45855E-03
-17.85000E-03,-2.09726704E+00,+384.46600E-03
-17.82500E-03,-2.07005613E+00,+379.95598E-03
-17.80000E-03,-2.01869938E+00,+376.95346E-03
-17.77500E-03,-1.98668905E+00,+376.41331E-03
-17.75000E-03,-1.96070983E+00,+375.34545E-03
-17.72500E-03,-1.91676529E+00,+371.38819E-03
-17.70000E-03,-1.88398827E+00,+370.84799E-03
-17.67500E-03,-1.85348574E+00,+369.78014E-03
-17.65000E-03,-1.79940285E+00,+366.48863E-03
-17.62500E-03,-1.75405091E+00,+366.04899E-03
-17.60000E-03,-1.72429019E+00,+363.44848E-03
-17.57500E-03,-1.67900126E+00,+361.02387E-03
-17.55000E-03,-1.63750584E+00,+359.76758E-03
-17.52500E-03,-1.59513155E+00,+357.15451E-03
-17.50000E-03,-1.54632535E+00,+356.62687E-03
-17.47500E-03,-1.49717921E+00,+353.22235E-03
-17.45000E-03,-1.43957889E+00,+351.27510E-03
-17.42500E-03,-1.36187804E+00,+349.36554E-03
-17.40000E-03,-1.32388783E+00,+347.77013E-03
-17.37500E-03,-1.30876224E+00,+346.57663E-03
-17.35000E-03,-1.27838565E+00,+346.23742E-03
-17.32500E-03,-1.21548303E+00,+341.86557E-03
-17.30000E-03,-1.14470457E+00,+342.39318E-03
-17.27500E-03,-1.09250647E+00,+339.66708E-03
-17.25000E-03,-1.07528243E+00,+338.78758E-03
-17.22500E-03,-1.05907611E+00,+336.90329E-03
-17.20000E-03,-1.01635038E+00,+332.22992E-03
-17.17500E-03,-968.83738E-03,+332.39322E-03
-17.15000E-03,-948.62416E-03,+330.33293E-03
-17.12500E-03,-919.44110E-03,+329.74245E-03
-17.10000E-03,-890.92324E-03,+326.51380E-03
-17.07500E-03,-870.42047E-03,+328.00877E-03
-17.05000E-03,-834.23982E-03,+326.91579E-03
-17.02500E-03,-800.16924E-03,+324.26508E-03
-17.00000E-03,-777.04128E-03,+319.62939E-03
-16.97500E-03,-743.72498E-03,+319.94349E-03
-16.95000E-03,-706.76496E-03,+317.55650E-03
-16.92500E-03,-674.55373E-03,+314.52891E-03
-16.90000E-03,-637.85793E-03,+315.06908E-03
-16.87500E-03,-598.14685E-03,+311.08669E-03
-16.85000E-03,-562.49354E-03,+310.65952E-03
-16.82500E-03,-524.37803E-03,+309.30275E-03
-16.80000E-03,-481.99094E-03,+307.65706E-03
-16.77500E-03,-438.14680E-03,+305.14449E-03
-16.75000E-03,-400.91070E-03,+302.48120E-03
-16.72500E-03,-366.67697E-03,+300.40829E-03
-16.70000E-03,-331.92821E-03,+299.46608E-03
-16.67500E-03,-295.48338E-03,+299.29021E-03
-16.65000E-03,-261.07393E-03,+296.46356E-03
-16.62500E-03,-227.35531E-03,+294.62936E-03
-16.60000E-03,-190.77234E-03,+291.52640E-03
-16.57500E-03,-153.72463E-03,+293.92582E-03
-16.55000E-03,-115.65940E-03,+290.16956E-03
-16.52500E-03,-80.62166E-03,+287.85806E-03
-16.50000E-03,-43.87548E-03,+288.09668E-03
-16.47500E-03,-8.25985E-03,+285.68466E-03
-16.45000E-03,+25.45872E-03,+284.74249E-03
-16.42500E-03,+63.15975E-03,+283.28520E-03
-16.40000E-03,+103.29800E-03,+280.75997E-03
-16.37500E-03,+140.04415E-03,+281.12432E-03
-16.35000E-03,+176.16229E-03,+279.65454E-03
-16.32500E-03,+214.56686E-03,+277.38059E-03
-16.30000E-03,+252.07942E-03,+275.73487E-03
-16.27500E-03,+283.86324E-03,+274.34045E-03
-16.25000E-03,+323.96387E-03,+271.51382E-03
-16.22500E-03,+371.77788E-03,+269.66704E-03
-16.20000E-03,+418.51166E-03,+270.04396E-03
-16.17500E-03,+451.08694E-03,+269.47865E-03
-16.15000E-03,+482.74511E-03,+267.89568E-03
-16.12500E-03,+517.11707E-03,+265.42084E-03
-16.10000E-03,+552.24277E-03,+261.81534E-03
-16.07500E-03,+590.18235E-03,+264.40324E-03
-16.05000E-03,+625.30802E-03,+261.14949E-03
-16.02500E-03,+654.20231E-03,+260.52135E-03
-16.00000E-03,+689.41602E-03,+257.44352E-03
-15.97500E-03,+718.83826E-03,+255.24501E-03
-15.95000E-03,+748.08437E-03,+256.38817E-03
-15.92500E-03,+780.01918E-03,+255.27016E-03
-15.90000E-03,+806.35079E-03,+253.92588E-03
-15.87500E-03,+831.94094E-03,+252.79518E-03
-15.85000E-03,+858.12205E-03,+252.39320E-03
-15.82500E-03,+882.69507E-03,+254.57904E-03
-15.80000E-03,+912.53157E-03,+252.60689E-03
-15.77500E-03,+940.93620E-03,+257.69472E-03
-15.75000E-03,+965.04413E-03,+266.48873E-03
-15.72500E-03,+988.95109E-03,+273.08417E-03
-15.70000E-03,+1.01714210E+00,+285.08176E-03
-15.67500E-03,+1.04494367E+00,+300.60931E-03
-15.65000E-03,+1.07525776E+00,+317.12949E-03
-15.62500E-03,+1.10725527E+00,+338.41097E-03
-15.60000E-03,+1.14571008E+00,+363.26018E-03
-15.57500E-03,+1.18003161E+00,+392.41850E-03
-15.55000E-03,+1.22459191E+00,+424.49141E-03
-15.52500E-03,+1.28118757E+00,+463.46128E-03
-15.50000E-03,+1.33156425E+00,+509.70508E-03
-15.47500E-03,+1.36282047E+00,+552.30546E-03
-15.45000E-03,+1.38815975E+00,+585.27028E-03
-15.42500E-03,+1.41748138E+00,+616.71497E-03
-15.40000E-03,+1.46321001E+00,+651.08687E-03
-15.37500E-03,+1.51278300E+00,+695.82315E-03
-15.35000E-03,+1.55564721E+00,+736.41350E-03
-15.32500E-03,+1.59756928E+00,+779.83063E-03
-15.30000E-03,+1.63563465E+00,+818.59943E-03
-15.27500E-03,+1.67506939E+00,+856.63966E-03
-15.25000E-03,+1.71617478E+00,+895.13210E-03
-15.22500E-03,+1.76254415E+00,+935.96135E-03
-15.20000E-03,+1.80228037E+00,+975.54676E-03
-15.17500E-03,+1.84495625E+00,+1.01934070E+00
-15.15000E-03,+1.88622519E+00,+1.05941607E+00
-15.12500E-03,+1.92578545E+00,+1.10122514E+00
-15.10000E-03,+1.96219244E+00,+1.14179049E+00
-15.07500E-03,+1.99921499E+00,+1.18018245E+00
-15.05000E-03,+2.03542106E+00,+1.21557186E+00
-15.02500E-03,+2.07022012E+00,+1.25155176E+00
-15.00000E-03,+2.10882566E+00,+1.29318484E+00
-14.97500E-03,+2.15238103E+00,+1.33114973E+00
-14.95000E-03,+2.18098641E+00,+1.36493115E+00
-14.92500E-03,+2.20612446E+00,+1.39564726E+00
-14.90000E-03,+2.24195375E+00,+1.42738082E+00
-14.87500E-03,+2.28181561E+00,+1.46328550E+00
-14.85000E-03,+2.32063467E+00,+1.49621258E+00
-14.82500E-03,+2.35685334E+00,+1.53408944E+00
-14.80000E-03,+2.38848637E+00,+1.56854924E+00
-14.77500E-03,+2.42411448E+00,+1.60381307E+00
-14.75000E-03,+2.46341109E+00,+1.64199142E+00
-14.72500E-03,+2.50312228E+00,+1.67863709E+00
-14.70000E-03,+2.54696616E+00,+1.71373772E+00
-14.67500E-03,+2.58120002E+00,+1.75338593E+00
-14.65000E-03,+2.61467993E+00,+1.78959194E+00
-14.62500E-03,+2.64777027E+00,+1.82572263E+00
-14.60000E-03,+2.68294615E+00,+1.86093621E+00
-14.57500E-03,+2.72172769E+00,+1.89631309E+00
-14.55000E-03,+2.75480557E+00,+1.93447882E+00
-14.52500E-03,+2.79081059E+00,+1.96655169E+00
-14.50000E-03,+2.82000648E+00,+2.00135073E+00
-14.47500E-03,+2.84822246E+00,+2.02925270E+00
-14.45000E-03,+2.87975514E+00,+2.06234315E+00
-14.42500E-03,+2.90803408E+00,+2.09016982E+00
-14.40000E-03,+2.93510690E+00,+2.12118734E+00
-14.37500E-03,+2.96466718E+00,+2.14902651E+00
-14.35000E-03,+2.99166470E+00,+2.17892610E+00
-14.32500E-03,+3.01705407E+00,+2.20627528E+00
-14.30000E-03,+3.04812212E+00,+2.23357418E+00
-14.27500E-03,+3.07145118E+00,+2.25775768E+00
-14.25000E-03,+3.09563443E+00,+2.28263203E+00
-14.22500E-03,+3.11660168E+00,+2.30617467E+00
-14.20000E-03,+3.13021981E+00,+2.32444096E+00
-14.17500E-03,+3.15261933E+00,+2.34635068E+00
-14.15000E-03,+3.17680293E+00,+2.36852404E+00
-14.12500E-03,+3.19689080E+00,+2.38847373E+00
-14.10000E-03,+3.22244342E+00,+2.41187818E+00
-14.07500E-03,+3.24034563E+00,+2.43323510E+00
-14.05000E-03,+3.26380028E+00,+2.45410180E+00
-14.02500E-03,+3.29001895E+00,+2.47474250E+00
-14.00000E-03,+3.31353676E+00,+2.49820993E+00
-13.97500E-03,+3.33995615E+00,+2.52138829E+00
